#Times 	                 Airmass 	 Delta Wav 	 FWHM 	        Sky Flux 	      Trace Center 
2457249.7180877021 	 1.0920000000 	 -0.0273885882 	 5.9004563555 	 52.8494431930 	 598.1123460931 
2457249.7191178128 	 1.0900000000 	 -0.0259411573 	 5.9897654687 	 51.8772860006 	 598.0191011987 
2457249.7201479240 	 1.0880000000 	 -0.0232058554 	 6.1051850243 	 52.3221436686 	 598.1335391729 
2457249.7211780348 	 1.0860000000 	 -0.0191166217 	 5.9106838749 	 53.2396860043 	 598.1825506020 
2457249.7222081455 	 1.0840000000 	 -0.0136716657 	 5.6137842017 	 47.9462440762 	 598.0508414631 
2457249.7232382568 	 1.0820000000 	 -0.0069655132 	 6.2062274941 	 50.1144255715 	 598.0500095741 
2457249.7242567930 	 1.0800000000 	 0.0008111030 	 5.9628723660 	 48.6784869507 	 598.1142693421 
2457249.7252869043 	 1.0780000000 	 0.0093976223 	 6.6076534198 	 52.2586363397 	 598.0709669704 
2457249.7263170150 	 1.0770000000 	 0.0185105176 	 6.9420766455 	 55.6541003483 	 598.1234418127 
2457249.7273355518 	 1.0750000000 	 0.0278981864 	 7.0921886989 	 55.2107886544 	 598.2089859088 
2457249.7283656625 	 1.0730000000 	 0.0374030087 	 7.2226161240 	 51.6874940206 	 598.2975378462 
2457249.7293957733 	 1.0710000000 	 0.0470111430 	 6.8529673443 	 52.8754454199 	 598.0860725223 
2457249.7304143100 	 1.0700000000 	 0.0568640661 	 5.9903854633 	 51.7890794469 	 598.2210892003 
2457249.7314444208 	 1.0680000000 	 0.0672067561 	 6.1908136414 	 52.7631092311 	 598.0451274809 
2457249.7324745315 	 1.0670000000 	 0.0782809115 	 6.4081353925 	 52.7287377255 	 598.3219156920 
2457249.7335046427 	 1.0650000000 	 0.0902032149 	 5.8890478504 	 49.1240922862 	 598.1846330597 
2457249.7345231790 	 1.0630000000 	 0.1028764848 	 5.5860913020 	 50.3985578757 	 598.1094058877 
2457249.7355532898 	 1.0620000000 	 0.1159874139 	 6.0256568797 	 46.6230686798 	 598.1339507763 
2457249.7365834010 	 1.0600000000 	 0.1291106382 	 5.6673049047 	 49.4454805715 	 598.1100958933 
2457249.7376135117 	 1.0590000000 	 0.1418812235 	 5.7201504618 	 49.5955211823 	 598.1891259889 
2457249.7386436225 	 1.0580000000 	 0.1541563705 	 5.6448564050 	 46.6927724708 	 598.0688620970 
2457249.7396737332 	 1.0560000000 	 0.1660826332 	 5.6221766401 	 50.5579903030 	 598.1062696250 
2457249.7407038440 	 1.0550000000 	 0.1780342914 	 5.6212389303 	 52.8786941205 	 598.1373701469 
2457249.7417339548 	 1.0540000000 	 0.1904543949 	 5.5374980037 	 48.2347227534 	 598.0497894884 
2457249.7427640655 	 1.0520000000 	 0.2036647644 	 6.1578295071 	 52.7698679076 	 598.1919805799 
2457249.7437826023 	 1.0510000000 	 0.2177239137 	 5.4806434064 	 47.9022979757 	 598.1164377116 
2457249.7448127130 	 1.0500000000 	 0.2323695638 	 5.7164250568 	 51.8188565618 	 598.1151378042 
2457249.7458428238 	 1.0490000000 	 0.2470564609 	 6.0327988730 	 52.3989760448 	 598.0322431250 
2457249.7468613600 	 1.0480000000 	 0.2610685719 	 6.1691665653 	 52.8217213586 	 598.0823289259 
2457249.7478914708 	 1.0460000000 	 0.2736609319 	 6.2868718578 	 52.9493235628 	 598.0460435689 
2457249.7489215815 	 1.0450000000 	 0.2841973338 	 6.0488879204 	 50.9677379309 	 598.2143176438 
2457249.7499401178 	 1.0440000000 	 0.2922508641 	 5.8841041781 	 47.2678744705 	 597.9929748412 
2457249.7509702286 	 1.0430000000 	 0.2976585104 	 5.3763285960 	 48.8694878956 	 597.9661420253 
2457249.7520003393 	 1.0420000000 	 0.3005149181 	 5.4796777681 	 47.7326248594 	 598.0035931115 
2457249.7530304501 	 1.0410000000 	 0.3011093490 	 5.5130932397 	 49.7635612006 	 598.1232331861 
2457249.7540605608 	 1.0400000000 	 0.2998146511 	 5.4250541046 	 51.8430124434 	 598.1551934776 
2457249.7550906716 	 1.0390000000 	 0.2969664905 	 5.6071359959 	 51.9580986605 	 598.0387007299 
2457249.7561207819 	 1.0390000000 	 0.2927852978 	 5.8702273574 	 53.8181788597 	 598.0942814601 
2457249.7571508926 	 1.0380000000 	 0.2873694489 	 5.6888756669 	 49.4322361212 	 597.9935482313 
2457249.7581810034 	 1.0370000000 	 0.2807426586 	 5.4948941684 	 52.0864511887 	 598.0366907816 
2457249.7592111141 	 1.0360000000 	 0.2729140633 	 5.4269410016 	 52.1225707702 	 598.1253361436 
2457249.7602296504 	 1.0350000000 	 0.2639262293 	 5.2892642374 	 46.7306673547 	 597.9975750869 
2457249.7612597612 	 1.0350000000 	 0.2538836205 	 5.5545419884 	 48.6233395566 	 597.8479334871 
2457249.7622898715 	 1.0340000000 	 0.2429789631 	 5.4478620033 	 47.8501193682 	 597.9105542596 
2457249.7633199822 	 1.0330000000 	 0.2315252886 	 5.1747401399 	 52.5532402274 	 598.0676460552 
2457249.7643385185 	 1.0330000000 	 0.2199707845 	 5.3890697054 	 51.6852479765 	 597.8900314936 
2457249.7653686292 	 1.0320000000 	 0.2088751252 	 5.7767650324 	 47.6403442983 	 597.7409495132 
2457249.7663987400 	 1.0320000000 	 0.1988302305 	 5.8964513496 	 50.8180031449 	 597.8341973134 
2457249.7674172763 	 1.0310000000 	 0.1903538265 	 5.8954613656 	 53.9822047768 	 597.9652453160 
2457249.7684473866 	 1.0310000000 	 0.1838028738 	 6.1302814943 	 53.4423401761 	 597.9170671258 
2457249.7694774973 	 1.0300000000 	 0.1793543964 	 6.0236219185 	 49.2016509318 	 597.8507474531 
2457249.7704960336 	 1.0300000000 	 0.1770481994 	 5.6154627468 	 52.1489122924 	 597.8630708456 
2457249.7715261439 	 1.0290000000 	 0.1768877353 	 5.5331620024 	 50.0435729167 	 597.9244283129 
2457249.7725562546 	 1.0290000000 	 0.1789387923 	 5.4101584630 	 49.2143775878 	 597.9148879272 
2457249.7735863654 	 1.0280000000 	 0.1834137226 	 5.1965564376 	 51.8520395385 	 597.8831699806 
2457249.7746164757 	 1.0280000000 	 0.1907018560 	 5.1434295131 	 51.6006921683 	 597.9305948892 
2457249.7756465864 	 1.0280000000 	 0.2013334290 	 5.0801657868 	 50.6613263406 	 597.8175105834 
2457249.7766766967 	 1.0270000000 	 0.2158584010 	 5.2308482944 	 45.8102246670 	 597.7943468362 
2457249.7777068075 	 1.0270000000 	 0.2346480877 	 5.0916244537 	 47.8765795227 	 597.8108433856 
2457249.7787369178 	 1.0270000000 	 0.2576593116 	 4.9773038446 	 45.4529566680 	 597.7433132153 
2457249.7797554540 	 1.0270000000 	 0.2842409185 	 5.1318142957 	 44.9988212516 	 597.7479898570 
2457249.7807855643 	 1.0270000000 	 0.3130754826 	 5.7260717573 	 47.4743091313 	 597.7465744567 
2457249.7818156751 	 1.0270000000 	 0.3423126288 	 5.7126742268 	 47.7557909809 	 597.9429307471 
2457249.7828342109 	 1.0260000000 	 0.3698951142 	 6.0789706411 	 52.3359995160 	 597.7968822290 
2457249.7838643217 	 1.0260000000 	 0.3939898349 	 6.3235721575 	 51.5988068444 	 597.8517607083 
2457249.7848944319 	 1.0260000000 	 0.4133791338 	 5.6356874315 	 50.8342229096 	 597.8727220795 
2457249.7859245422 	 1.0260000000 	 0.4276538833 	 5.9567641552 	 52.5410729777 	 597.8920523433 
2457249.7869430785 	 1.0260000000 	 0.4371451281 	 6.3733171992 	 53.1469394753 	 597.9797532412 
2457249.7879731888 	 1.0260000000 	 0.4426418205 	 5.8791575358 	 51.1193370521 	 598.0421615880 
2457249.7890032995 	 1.0260000000 	 0.4450381428 	 5.8341308859 	 51.5210773780 	 597.9142064218 
2457249.7900218354 	 1.0260000000 	 0.4450574483 	 5.6135149995 	 51.6090667715 	 597.9537400950 
2457249.7910519461 	 1.0270000000 	 0.4431458146 	 5.7660335193 	 48.8810433429 	 597.9956757850 
2457249.7920820564 	 1.0270000000 	 0.4395396461 	 6.4607020818 	 52.9075675378 	 598.0595024054 
2457249.7931121667 	 1.0270000000 	 0.4344497921 	 5.8615802319 	 51.9797215957 	 598.0635313480 
2457249.7941422770 	 1.0270000000 	 0.4282669089 	 5.8549716606 	 47.6035532113 	 598.0435330364 
2457249.7951723873 	 1.0270000000 	 0.4216937435 	 5.2822662858 	 51.8908427424 	 597.9581877338 
2457249.7962024980 	 1.0280000000 	 0.4157348215 	 5.1731552926 	 51.1699879627 	 597.9371306078 
2457249.7972326083 	 1.0280000000 	 0.4115219347 	 5.6301872593 	 52.5670695701 	 597.9471850808 
2457249.7982627186 	 1.0280000000 	 0.4100547414 	 5.4836900299 	 51.1486512296 	 597.8792767163 
2457249.7992928289 	 1.0290000000 	 0.4119585976 	 5.6618539952 	 51.2163148835 	 597.9525036784 
2457249.8332054452 	 1.0570000000 	 0.9235373663 	 5.4497878916 	 54.2996199669 	 597.9624744967 
2457249.8342355555 	 1.0580000000 	 0.9230476607 	 5.1787562707 	 52.1641391013 	 597.9672582414 
2457249.8352656653 	 1.0600000000 	 0.9212214611 	 5.3380472332 	 53.1605791486 	 598.0281663319 
2457249.8362957756 	 1.0610000000 	 0.9182927832 	 5.7806900675 	 57.1843459725 	 598.0303785757 
2457249.8373258854 	 1.0630000000 	 0.9146172878 	 5.5392931694 	 55.9812131235 	 598.0361514159 
2457249.8383444212 	 1.0640000000 	 0.9106445565 	 5.2857359542 	 57.3091960798 	 598.0723651352 
2457249.8393745315 	 1.0660000000 	 0.9068676767 	 5.6097433998 	 55.0179250763 	 598.1303093071 
2457249.8404046413 	 1.0670000000 	 0.9037446865 	 5.4929632277 	 56.8901608124 	 598.1254100776 
2457249.8414347512 	 1.0690000000 	 0.9016142824 	 6.0027522495 	 58.9963567489 	 598.0699834480 
2457249.8424648615 	 1.0710000000 	 0.9006293163 	 5.7678112128 	 56.3635277202 	 598.0558927576 
2457249.8434833973 	 1.0720000000 	 0.9007347262 	 5.9079270036 	 60.2553630504 	 598.0630455744 
2457249.8445135071 	 1.0740000000 	 0.9016968682 	 5.7969699474 	 59.0713317501 	 598.0564666514 
2457249.8455436169 	 1.0760000000 	 0.9031748549 	 5.8260774013 	 55.5789252918 	 598.0140792522 
2457249.8465621527 	 1.0780000000 	 0.9048009833 	 5.7197126759 	 61.3553512049 	 598.0726241601 
2457249.8475922626 	 1.0790000000 	 0.9062407647 	 5.5380705303 	 56.6100620898 	 598.0738716579 
2457249.8486339469 	 1.0810000000 	 0.9072111251 	 5.1019042658 	 61.1103946579 	 598.0585322299 
2457249.8496640567 	 1.0830000000 	 0.9074557029 	 5.7952066598 	 62.4308721594 	 598.0963597555 
2457249.8506941670 	 1.0850000000 	 0.9066996050 	 5.2182283062 	 54.3763628712 	 598.0225048988 
2457249.8517242768 	 1.0870000000 	 0.9046314014 	 5.2159256310 	 59.7632418492 	 598.0648971267 
2457249.8527543866 	 1.0890000000 	 0.9009561892 	 5.0805175730 	 60.3066903450 	 598.0710630063 
2457249.8537729224 	 1.0910000000 	 0.8955359488 	 5.2156387107 	 56.9210995731 	 598.1408360800 
2457249.8548030322 	 1.0930000000 	 0.8885701502 	 5.2031656878 	 61.6634143546 	 598.0899242247 
2457249.8558331421 	 1.0950000000 	 0.8807201771 	 5.3406155970 	 58.8427240048 	 597.9799046917 
2457249.8568516779 	 1.0970000000 	 0.8730818050 	 5.3053886168 	 60.8393059374 	 597.9581789937 
2457249.8578817877 	 1.1000000000 	 0.8669682430 	 5.5719640964 	 56.3646464664 	 598.0277297749 
2457249.8589118975 	 1.1020000000 	 0.8635615058 	 5.3413035242 	 56.5785318553 	 597.9486080478 
2457292.5436188993 	 1.2740000000 	 -0.1503152574 	 7.0186226674 	 1071.6383078963 	 603.0669968240 
2457292.5442438750 	 1.2710000000 	 -0.1433811065 	 7.0175351687 	 1066.3935640099 	 602.9746807559 
2457292.5448572771 	 1.2680000000 	 -0.1378759003 	 4.5948541462 	 1056.8732947831 	 603.1437531338 
2457292.5454822532 	 1.2650000000 	 -0.1341708734 	 6.8578893079 	 1053.5551349601 	 603.0371334288 
2457292.5461072288 	 1.2620000000 	 -0.1321872931 	 5.7452396532 	 1052.6869422446 	 603.1453030370 
2457292.5467322045 	 1.2600000000 	 -0.1315213415 	 2.1443696785 	 1061.9765619118 	 603.4064070740 
2457292.5473571802 	 1.2570000000 	 -0.1317161482 	 2.4039524060 	 1068.3874814747 	 603.0714067331 
2457292.5479705827 	 1.2540000000 	 -0.1325179881 	 5.3684626495 	 1060.2599688139 	 603.0462621035 
2457292.5485955584 	 1.2510000000 	 -0.1339631056 	 1.8013459921 	 1059.6847241632 	 603.1165116940 
2457292.5492205340 	 1.2490000000 	 -0.1362561033 	 2.5937392099 	 1035.0463515283 	 603.0838683885 
2457292.5498455097 	 1.2460000000 	 -0.1395502592 	 4.9609074082 	 1052.3758418160 	 603.0425400145 
2457292.5504589123 	 1.2430000000 	 -0.1437857709 	 4.2206817358 	 1029.3859412623 	 603.2657608586 
2457292.5510838879 	 1.2410000000 	 -0.1487043448 	 3.7071072494 	 1039.8455194419 	 602.9892409846 
2457292.5517088636 	 1.2380000000 	 -0.1540095196 	 7.6253719087 	 1011.1039190928 	 602.9721000728 
2457292.5523222657 	 1.2350000000 	 -0.1595494192 	 6.0529398240 	 1015.0356103908 	 603.0014981595 
2457292.5529472418 	 1.2330000000 	 -0.1654051585 	 2.1228063992 	 1030.8916787594 	 603.2327681733 
2457292.5535722175 	 1.2300000000 	 -0.1718419684 	 2.8390515595 	 1021.4557125345 	 603.2608351304 
2457292.5541971931 	 1.2280000000 	 -0.1791647272 	 2.3018168407 	 1020.2199997520 	 603.3158963371 
2457292.5548105952 	 1.2250000000 	 -0.1875567682 	 2.1048014487 	 1020.0597046603 	 603.1494969416 
2457292.5554355709 	 1.2230000000 	 -0.1969634776 	 1.8472997454 	 1048.9517809244 	 602.9717404186 
2457292.5560489730 	 1.2200000000 	 -0.2070605015 	 1.7876210448 	 1024.8528307119 	 603.1594082087 
2457292.5566739491 	 1.2180000000 	 -0.2173262341 	 2.2403840730 	 1010.3980207470 	 603.1223447952 
2457292.5572989248 	 1.2150000000 	 -0.2272113772 	 1.9910415789 	 1014.6157378997 	 603.2911536583 
2457292.5579239004 	 1.2130000000 	 -0.2363349913 	 1.2883240737 	 1029.3485181271 	 602.9208061471 
2457292.5585373025 	 1.2110000000 	 -0.2446172743 	 2.5228518290 	 1000.6137739827 	 603.0366598994 
2457292.5591622782 	 1.2080000000 	 -0.2522499432 	 4.1783710588 	 992.4554699698 	 603.0800964393 
2457292.5597872543 	 1.2060000000 	 -0.2595326364 	 4.1113134585 	 1013.4501860342 	 602.9025688686 
2457292.5604122300 	 1.2040000000 	 -0.2666622180 	 6.3905479121 	 988.7815338466 	 602.7871355223 
2457292.5610372056 	 1.2010000000 	 -0.2736188641 	 5.5066915910 	 988.4643845495 	 603.0641857495 
2457292.5616506077 	 1.1990000000 	 -0.2802100749 	 3.8009351973 	 998.4891601516 	 602.8930839418 
2457292.5622755834 	 1.1970000000 	 -0.2862196208 	 2.0389709817 	 1019.0205526966 	 603.0195026228 
2457292.5629005590 	 1.1950000000 	 -0.2915427811 	 8.3168806325 	 999.2217451378 	 602.7844181431 
2457292.5635139612 	 1.1920000000 	 -0.2962086482 	 1.9797658845 	 1003.8373632446 	 602.8759891557 
2457292.5641389373 	 1.1900000000 	 -0.3002989538 	 1.9357955442 	 1051.2392391816 	 602.7022597629 
2457292.5647639129 	 1.1880000000 	 -0.3038499109 	 2.0734398409 	 1045.2184543972 	 602.7286581002 
2457292.5653888886 	 1.1860000000 	 -0.3068164251 	 3.0193577703 	 1058.9781696194 	 602.9574116598 
2457292.5660138642 	 1.1840000000 	 -0.3091298551 	 3.2746371698 	 1100.6142465503 	 602.5544317758 
2457292.5666272664 	 1.1810000000 	 -0.3107850818 	 1.7758799578 	 1009.6305925914 	 602.6381053327 
2457292.5672522420 	 1.1790000000 	 -0.3118934548 	 2.3510677616 	 1008.7133773976 	 602.9803830089 
2457292.5678772177 	 1.1770000000 	 -0.3126558349 	 2.0361290592 	 984.5118024098 	 602.6765639177 
2457292.5685021933 	 1.1750000000 	 -0.3132906554 	 1.5260501681 	 995.4591075092 	 602.7684343518 
2457292.5691155954 	 1.1730000000 	 -0.3139352688 	 2.0606348011 	 963.4549660483 	 602.4837785497 
2457292.5697405711 	 1.1710000000 	 -0.3145622234 	 2.2270129348 	 955.9766653017 	 602.5208528306 
2457292.5703655472 	 1.1690000000 	 -0.3149249635 	 2.0274691151 	 968.5655597289 	 602.9114964672 
2457292.5709905229 	 1.1670000000 	 -0.3145363833 	 1.7407532927 	 985.9710371873 	 602.6050483876 
2457292.5716154985 	 1.1650000000 	 -0.3127104201 	 2.5183224160 	 1048.2520565641 	 602.6848205268 
2457292.5722289006 	 1.1630000000 	 -0.3087210933 	 3.0011381123 	 1032.2677159962 	 602.5173492142 
2457292.5728538763 	 1.1610000000 	 -0.3020847884 	 3.6110590121 	 1060.7028652949 	 602.5173492142 
2457292.5734788519 	 1.1590000000 	 -0.2929111914 	 3.2229197939 	 1051.2641110531 	 602.6362649399 
2457292.5741038276 	 1.1570000000 	 -0.2821656489 	 1.8075430352 	 983.1582913662 	 602.9714487442 
2457292.5747172297 	 1.1550000000 	 -0.2716348309 	 2.6844750855 	 1002.7336030754 	 602.9274156783 
2457292.5758398711 	 1.1520000000 	 -0.2634938493 	 2.5073206899 	 993.5622935992 	 602.4191726356 
2457292.5764648467 	 1.1500000000 	 -0.2595874993 	 2.1240065409 	 982.1427078134 	 602.6066666038 
2457292.5770898224 	 1.1480000000 	 -0.2607365712 	 1.8352744768 	 960.6202010611 	 602.5517488393 
2457292.5777147980 	 1.1470000000 	 -0.2664202893 	 2.1651970980 	 967.4288707511 	 602.7623904087 
2457292.5783282002 	 1.1450000000 	 -0.2749584585 	 2.4700355290 	 971.2865468130 	 602.7068902008 
2457292.5789531758 	 1.1430000000 	 -0.2840618186 	 1.9947093245 	 946.2180452469 	 602.6109447792 
2457292.5795781515 	 1.1410000000 	 -0.2914851248 	 1.7073165293 	 954.1970222270 	 602.6673531997 
2457292.5802031271 	 1.1390000000 	 -0.2955573428 	 1.8730078736 	 966.0211223515 	 602.9320471380 
2457292.5808165292 	 1.1380000000 	 -0.2954944441 	 1.6134521494 	 955.9211723658 	 602.8691086390 
2457292.5814415049 	 1.1360000000 	 -0.2914985279 	 1.8044721082 	 941.4757334398 	 602.4945363919 
2457292.5820664805 	 1.1340000000 	 -0.2846662868 	 1.4011425944 	 942.9655751498 	 602.5908398569 
2457292.5826914562 	 1.1330000000 	 -0.2767401272 	 1.5368247936 	 946.2841404002 	 602.8116326243 
2457292.5833164318 	 1.1310000000 	 -0.2697506117 	 3.1190516501 	 918.0004373670 	 602.6153828532 
2457292.5839298340 	 1.1290000000 	 -0.2656372348 	 5.7076898714 	 904.4434458158 	 602.7305774019 
2457292.5845548096 	 1.1280000000 	 -0.2659324875 	 3.0903869769 	 917.1897668177 	 602.7240376935 
2457292.5851797853 	 1.1260000000 	 -0.2715583641 	 4.6695961779 	 894.4908037172 	 602.8482515102 
2457292.5857931874 	 1.1250000000 	 -0.2827220055 	 1.7320155635 	 930.6481119258 	 602.8754614067 
2457292.5864181630 	 1.1230000000 	 -0.2988607662 	 1.7033718354 	 910.2624958250 	 602.9391513461 
2457292.5870431387 	 1.1210000000 	 -0.3186660821 	 2.0521444745 	 948.7469240453 	 602.7855122412 
2457292.5876681143 	 1.1200000000 	 -0.3402236273 	 1.8972720485 	 898.6312685557 	 602.9191713903 
2457292.5882930900 	 1.1180000000 	 -0.3613202637 	 1.6833357816 	 898.3487959780 	 602.7238665691 
2457292.5889064921 	 1.1170000000 	 -0.3799193560 	 2.0964062239 	 912.9665019933 	 602.5675640169 
2457292.5895314678 	 1.1150000000 	 -0.3946560354 	 2.3667072577 	 887.7403418652 	 602.6928666958 
2457292.5901564434 	 1.1140000000 	 -0.4051752075 	 3.5190542116 	 883.5582965882 	 602.8497710010 
2457292.5907814186 	 1.1120000000 	 -0.4121462532 	 2.1664471080 	 876.0912988171 	 602.8317176662 
2457292.5913948207 	 1.1110000000 	 -0.4169774022 	 3.7927106501 	 880.5075931259 	 602.6971789019 
2457292.5920197964 	 1.1090000000 	 -0.4213526854 	 4.0759777660 	 892.4273530156 	 602.8068216145 
2457292.5926447720 	 1.1080000000 	 -0.4267997455 	 4.9357752393 	 906.3067326178 	 602.7631379377 
2457292.5932697477 	 1.1060000000 	 -0.4344060879 	 4.0838981516 	 884.4495535502 	 602.8040729862 
2457292.5938831498 	 1.1050000000 	 -0.4447354943 	 6.3989229180 	 872.2220601283 	 602.9253598664 
2457292.5945081254 	 1.1040000000 	 -0.4578841176 	 1.9403694917 	 896.2687400981 	 602.7379848910 
2457292.5951331011 	 1.1020000000 	 -0.4735736732 	 6.5440590003 	 871.3893594586 	 602.7426269119 
2457292.5957580763 	 1.1010000000 	 -0.4911923680 	 6.5825884461 	 873.3766117828 	 602.7498398622 
2457292.5963714784 	 1.1000000000 	 -0.5097516034 	 6.4936574909 	 879.8014937656 	 602.7459028807 
2457292.5969964541 	 1.0980000000 	 -0.5278047886 	 5.4631522077 	 854.7320300872 	 602.7367949390 
2457292.5976214297 	 1.0970000000 	 -0.5434484023 	 7.2705911146 	 875.1063159717 	 602.5839670366 
2457292.5982348318 	 1.0960000000 	 -0.5545263361 	 2.9356776579 	 876.7588774747 	 602.6869807306 
2457292.5988598070 	 1.0940000000 	 -0.5590523514 	 7.8528964667 	 867.8356108690 	 602.6840110364 
2457292.5994847827 	 1.0930000000 	 -0.5557645992 	 5.0181014231 	 880.6911300901 	 602.7703350223 
2457292.6001097583 	 1.0920000000 	 -0.5445939485 	 8.0987787600 	 862.8074161264 	 602.9079208008 
2457292.6007231604 	 1.0910000000 	 -0.5268721532 	 7.9130283367 	 864.2970474044 	 602.6592709217 
2457292.6013481361 	 1.0890000000 	 -0.5051298632 	 7.7358664093 	 858.4882859056 	 602.7437270320 
2457292.6019731117 	 1.0880000000 	 -0.4825102207 	 5.9351000338 	 867.7760786333 	 602.8451246313 
